time (fs),deltaI
0,-0.904523453
-0.06428507,-0.874372704
-0.128570139,-0.869347579
-0.192855209,-0.864322454
-0.257140279,-0.889448078
-0.321425348,-0.914573702
-0.385710418,-0.989950574
-0.449995487,-1.050252072
-0.514280557,-1.105528445
-0.578565627,-1.160804818
-0.642850696,-1.195980691
-0.707135766,-1.195980691
-0.771420836,-1.180905317
-0.835705905,-1.135679194
-0.899990975,-1.085427946
-0.964276045,-1.020101323
-1.028561114,-0.96482495
-1.092846184,-0.914573702
-1.157131254,-0.869347579
-1.221416323,-0.84924708
-1.285701393,-0.864322454
-1.349986462,-0.889448078
-1.414271532,-0.929649077
-1.478556602,-0.98492545
-1.542841671,-1.030151573
-1.607126741,-1.080402821
-1.671411811,-1.115578694
-1.73569688,-1.135679194
-1.79998195,-1.125628944
-1.86426702,-1.095478195
-1.928552089,-1.040201822
-1.992837159,-0.969850075
-2.057122229,-0.919598827
-2.121407298,-0.85929733
-2.185692368,-0.814071206
-2.249977437,-0.758794834
-2.314262507,-0.748744584
-2.378547577,-0.773870208
-2.442832646,-0.798995832
-2.507117716,-0.809046082
-2.571402786,-0.854272205
-2.635687855,-0.889448078
-2.699972925,-0.919598827
-2.764257995,-0.944724451
-2.828543064,-0.979900325
-2.892828134,-0.989950574
-2.957113204,-0.98492545
-3.021398273,-0.9748752
-3.085683343,-0.989950574
-3.149968412,-0.96482495
-3.214253482,-0.98492545
-3.278538552,-0.959799826
-3.342823621,-0.954774701
-3.407108691,-0.944724451
-3.471393761,-0.919598827
-3.53567883,-0.914573702
-3.5999639,-0.874372704
-3.66424897,-0.854272205
-3.728534039,-0.819096331
-3.792819109,-0.798995832
-3.857104179,-0.824121456
-3.921389248,-0.85929733
-3.985674318,-0.889448078
-4.049959387,-0.934674202
-4.114244457,-1.005025949
-4.178529527,-1.080402821
-4.242814596,-1.160804818
-4.307099666,-1.201005816
-4.371384736,-1.241206814
-4.435669805,-1.241206814
-4.499954875,-1.246231939
-4.564239945,-1.195980691
-4.628525014,-1.140704318
-4.692810084,-1.060302322
-4.757095154,-0.98492545
-4.821380223,-0.934674202
-4.885665293,-0.879397829
-4.949950362,-0.869347579
-5.014235432,-0.864322454
-5.078520502,-0.894473203
-5.142805571,-0.939699326
-5.207090641,-1.010051074
-5.271375711,-1.09045307
-5.33566078,-1.135679194
-5.39994585,-1.185930442
-5.46423092,-1.22613144
-5.528515989,-1.221106315
-5.592801059,-1.195980691
-5.657086129,-1.150754568
-5.721371198,-1.09045307
-5.785656268,-1.000000824
-5.849941337,-0.914573702
-5.914226407,-0.864322454
-5.978511477,-0.804020957
-6.042796546,-0.768845083
-6.107081616,-0.748744584
-6.171366686,-0.748744584
-6.235651755,-0.773870208
-6.299936825,-0.819096331
-6.364221895,-0.869347579
-6.428506964,-0.919598827
-6.492792034,-0.979900325
-6.557077104,-1.030151573
-6.621362173,-1.055277197
-6.685647243,-1.085427946
-6.749932312,-1.10050332
-6.814217382,-1.11055357
-6.878502452,-1.10050332
-6.942787521,-1.10050332
-7.007072591,-1.060302322
-7.071357661,-1.045226947
-7.13564273,-1.000000824
-7.1999278,-0.954774701
-7.26421287,-0.924623952
-7.328497939,-0.909548578
-7.392783009,-0.84924708
-7.457068079,-0.814071206
-7.521353148,-0.814071206
-7.585638218,-0.798995832
-7.649923287,-0.809046082
-7.714208357,-0.83919683
-7.778493427,-0.879397829
-7.842778496,-0.919598827
-7.907063566,-0.979900325
-7.971348636,-1.035176698
-8.035633705,-1.060302322
-8.099918775,-1.085427946
-8.164203845,-1.075377696
-8.228488914,-1.060302322
-8.292773984,-1.020101323
-8.357059054,-0.96482495
-8.421344123,-0.919598827
-8.485629193,-0.864322454
-8.549914262,-0.798995832
-8.614199332,-0.753769709
-8.678484402,-0.73366921
-8.742769471,-0.71356871
-8.807054541,-0.73366921
-8.871339611,-0.809046082
-8.93562468,-0.864322454
-8.99990975,-0.929649077
-9.06419482,-1.030151573
-9.128479889,-1.09045307
-9.192764959,-1.150754568
-9.257050029,-1.175880192
-9.321335098,-1.201005816
-9.385620168,-1.195980691
-9.449905237,-1.155779693
-9.514190307,-1.11055357
-9.578475377,-1.070352571
-9.642760446,-1.005025949
-9.707045516,-0.959799826
-9.771330586,-0.904523453
-9.835615655,-0.894473203
-9.899900725,-0.894473203
-9.964185795,-0.914573702
-10.02847086,-0.909548578
-10.09275593,-0.929649077
-10.157041,-0.979900325
-10.22132607,-1.005025949
-10.28561114,-1.050252072
-10.34989621,-1.075377696
-10.41418128,-1.09045307
-10.47846635,-1.115578694
-10.54275142,-1.11055357
-10.60703649,-1.125628944
-10.67132156,-1.115578694
-10.73560663,-1.105528445
-10.7998917,-1.080402821
-10.86417677,-1.055277197
-10.92846184,-1.035176698
-10.99274691,-1.015076198
-11.05703198,-0.96482495
-11.12131705,-0.944724451
-11.18560212,-0.939699326
-11.24988719,-0.929649077
-11.31417226,-0.909548578
-11.37845733,-0.949749576
-11.4427424,-0.939699326
-11.50702747,-0.9748752
-11.57131254,-0.98492545
-11.63559761,-1.040201822
-11.69988267,-1.065327446
-11.76416774,-1.080402821
-11.82845281,-1.09045307
-11.89273788,-1.095478195
-11.95702295,-1.085427946
-12.02130802,-1.075377696
-12.08559309,-1.025126448
-12.14987816,-0.989950574
-12.21416323,-0.934674202
-12.2784483,-0.904523453
-12.34273337,-0.869347579
-12.40701844,-0.83919683
-12.47130351,-0.829146581
-12.53558858,-0.84924708
-12.59987365,-0.894473203
-12.66415872,-0.934674202
-12.72844379,-1.000000824
-12.79272886,-1.050252072
-12.85701393,-1.11055357
-12.921299,-1.140704318
-12.98558407,-1.185930442
-13.04986914,-1.211056066
-13.11415421,-1.21608119
-13.17843928,-1.190955566
-13.24272435,-1.170855067
-13.30700942,-1.120603819
-13.37129449,-1.085427946
-13.43557956,-1.020101323
-13.49986462,-0.954774701
-13.56414969,-0.924623952
-13.62843476,-0.909548578
-13.69271983,-0.914573702
-13.7570049,-0.929649077
-13.82128997,-0.959799826
-13.88557504,-0.994975699
-13.94986011,-1.030151573
-14.01414518,-1.060302322
-14.07843025,-1.09045307
-14.14271532,-1.120603819
-14.20700039,-1.11055357
-14.27128546,-1.120603819
-14.33557053,-1.10050332
-14.3998556,-1.065327446
-14.46414067,-1.035176698
-14.52842574,-1.020101323
-14.59271081,-0.979900325
-14.65699588,-0.949749576
-14.72128095,-0.919598827
-14.78556602,-0.914573702
-14.84985109,-0.894473203
-14.91413616,-0.874372704
-14.97842123,-0.864322454
-15.0427063,-0.884422954
-15.10699137,-0.879397829
-15.17127644,-0.894473203
-15.23556151,-0.919598827
-15.29984657,-0.934674202
-15.36413164,-0.959799826
-15.42841671,-0.979900325
-15.49270178,-0.979900325
-15.55698685,-1.000000824
-15.62127192,-0.98492545
-15.68555699,-0.979900325
-15.74984206,-0.96482495
-15.81412713,-0.924623952
-15.8784122,-0.874372704
-15.94269727,-0.83919683
-16.00698234,-0.783920458
-16.07126741,-0.753769709
-16.13555248,-0.71356871
-16.19983755,-0.683417962
-16.26412262,-0.693468211
-16.32840769,-0.703518461
-16.39269276,-0.748744584
-16.45697783,-0.768845083
-16.5212629,-0.829146581
-16.58554797,-0.874372704
-16.64983304,-0.914573702
-16.71411811,-0.954774701
-16.77840318,-0.9748752
-16.84268825,-0.98492545
-16.90697332,-1.005025949
-16.97125839,-0.994975699
-17.03554346,-0.9748752
-17.09982852,-0.924623952
-17.16411359,-0.899498328
-17.22839866,-0.874372704
-17.29268373,-0.84924708
-17.3569688,-0.85929733
-17.42125387,-0.854272205
-17.48553894,-0.869347579
-17.54982401,-0.939699326
-17.61410908,-0.969850075
-17.67839415,-1.030151573
-17.74267922,-1.09045307
-17.80696429,-1.135679194
-17.87124936,-1.165829942
-17.93553443,-1.170855067
-17.9998195,-1.170855067
-18.06410457,-1.185930442
-18.12838964,-1.165829942
-18.19267471,-1.125628944
-18.25695978,-1.105528445
-18.32124485,-1.080402821
-18.38552992,-1.075377696
-18.44981499,-1.035176698
-18.51410006,-1.000000824
-18.57838513,-1.000000824
-18.6426702,-0.98492545
-18.70695527,-1.005025949
-18.77124034,-1.010051074
-18.83552541,-1.015076198
-18.89981047,-1.040201822
-18.96409554,-1.045226947
-19.02838061,-1.070352571
-19.09266568,-1.070352571
-19.15695075,-1.09045307
-19.22123582,-1.11055357
-19.28552089,-1.105528445
-19.34980596,-1.11055357
-19.41409103,-1.120603819
-19.4783761,-1.09045307
-19.54266117,-1.050252072
-19.60694624,-1.050252072
-19.67123131,-1.005025949
-19.73551638,-0.979900325
-19.79980145,-0.959799826
-19.86408652,-0.919598827
-19.92837159,-0.899498328
-19.99265666,-0.904523453
-20.05694173,-0.884422954
-20.1212268,-0.899498328
-20.18551187,-0.919598827
-20.24979694,-0.934674202
-20.31408201,-0.959799826
-20.37836708,-0.98492545
-20.44265215,-1.015076198
-20.50693722,-1.020101323
-20.57122229,-1.020101323
-20.63550736,-1.000000824
-20.69979242,-0.979900325
-20.76407749,-0.944724451
-20.82836256,-0.889448078
-20.89264763,-0.84924708
-20.9569327,-0.814071206
-21.02121777,-0.788945582
-21.08550284,-0.788945582
-21.14978791,-0.804020957
-21.21407298,-0.824121456
-21.27835805,-0.844221955
-21.34264312,-0.879397829
-21.40692819,-0.944724451
-21.47121326,-0.989950574
-21.53549833,-1.025126448
-21.5997834,-1.045226947
-21.66406847,-1.065327446
-21.72835354,-1.080402821
-21.79263861,-1.085427946
-21.85692368,-1.075377696
-21.92120875,-1.030151573
-21.98549382,-1.015076198
-22.04977889,-1.020101323
-22.11406396,-0.96482495
-22.17834903,-0.96482495
-22.2426341,-0.959799826
-22.30691917,-0.944724451
-22.37120424,-0.949749576
-22.43548931,-0.954774701
-22.49977437,-0.96482495
-22.56405944,-0.949749576
-22.62834451,-0.9748752
-22.69262958,-0.979900325
-22.75691465,-0.949749576
-22.82119972,-0.959799826
-22.88548479,-0.949749576
-22.94976986,-0.914573702
-23.01405493,-0.889448078
-23.07834,-0.884422954
-23.14262507,-0.84924708
-23.20691014,-0.809046082
-23.27119521,-0.768845083
-23.33548028,-0.73366921
-23.39976535,-0.698493336
-23.46405042,-0.683417962
-23.52833549,-0.668342587
-23.59262056,-0.673367712
-23.65690563,-0.653267213
-23.7211907,-0.658292338
-23.78547577,-0.688443086
-23.84976084,-0.728644085
-23.91404591,-0.758794834
-23.97833098,-0.773870208
-24.04261605,-0.804020957
-24.10690112,-0.83919683
-24.17118619,-0.854272205
-24.23547126,-0.864322454
-24.29975632,-0.84924708
-24.36404139,-0.829146581
-24.42832646,-0.819096331
-24.49261153,-0.773870208
-24.5568966,-0.753769709
-24.62118167,-0.72361896
-24.68546674,-0.71356871
-24.74975181,-0.698493336
-24.81403688,-0.718593835
-24.87832195,-0.763819958
-24.94260702,-0.783920458
-25.00689209,-0.854272205
-25.07117716,-0.914573702
-25.13546223,-0.994975699
-25.1997473,-1.060302322
-25.26403237,-1.10050332
-25.32831744,-1.125628944
-25.39260251,-1.160804818
-25.45688758,-1.150754568
-25.52117265,-1.140704318
-25.58545772,-1.120603819
-25.64974279,-1.065327446
-25.71402786,-1.005025949
-25.77831293,-0.98492545
-25.842598,-0.969850075
-25.90688307,-0.944724451
-25.97116814,-0.949749576
-26.03545321,-0.9748752
-26.09973827,-1.005025949
-26.16402334,-1.075377696
-26.22830841,-1.130654069
-26.29259348,-1.195980691
-26.35687855,-1.251257064
-26.42116362,-1.281407813
-26.48544869,-1.321608811
-26.54973376,-1.321608811
-26.61401883,-1.296483187
-26.6783039,-1.266332438
-26.74258897,-1.241206814
-26.80687404,-1.201005816
-26.87115911,-1.140704318
-26.93544418,-1.095478195
-26.99972925,-1.030151573
-27.06401432,-0.9748752
-27.12829939,-0.9748752
-27.19258446,-0.994975699
-27.25686953,-1.005025949
-27.3211546,-1.025126448
-27.38543967,-1.060302322
-27.44972474,-1.10050332
-27.51400981,-1.160804818
-27.57829488,-1.206030941
-27.64257995,-1.241206814
-27.70686502,-1.281407813
-27.77115009,-1.296483187
-27.83543516,-1.316583686
-27.89972022,-1.331659061
-27.96400529,-1.296483187
-28.02829036,-1.256282189
-28.09257543,-1.221106315
-28.1568605,-1.150754568
-28.22114557,-1.085427946
-28.28543064,-1.015076198
-28.34971571,-0.96482495
-28.41400078,-0.919598827
-28.47828585,-0.889448078
-28.54257092,-0.889448078
-28.60685599,-0.899498328
-28.67114106,-0.894473203
-28.73542613,-0.96482495
-28.7997112,-1.015076198
-28.86399627,-1.085427946
-28.92828134,-1.125628944
-28.99256641,-1.170855067
-29.05685148,-1.185930442
-29.12113655,-1.180905317
-29.18542162,-1.130654069
-29.24970669,-1.070352571
-29.31399176,-0.9748752
-29.37827683,-0.879397829
-29.4425619,-0.783920458
-29.50684697,-0.688443086
-29.57113204,-0.628141589
-29.63541711,-0.547739592
-29.69970217,-0.507538594
-29.76398724,-0.527639093
-29.82827231,-0.572865216
-29.89255738,-0.603015965
-29.95684245,-0.673367712
-30.02112752,-0.738694334
-30.08541259,-0.819096331
-30.14969766,-0.874372704
-30.21398273,-0.924623952
-30.2782678,-0.934674202
-30.34255287,-0.929649077
-30.40683794,-0.884422954
-30.47112301,-0.834171706
-30.53540808,-0.778895333
-30.59969315,-0.703518461
-30.66397822,-0.643216963
-30.72826329,-0.59799084
-30.79254836,-0.527639093
-30.85683343,-0.497488344
-30.9211185,-0.522613968
-30.98540357,-0.552764717
-31.04968864,-0.582915466
-31.11397371,-0.643216963
-31.17825878,-0.743719459
-31.24254385,-0.793970707
-31.30682892,-0.879397829
-31.37111399,-0.954774701
-31.43539906,-1.015076198
-31.49968412,-1.085427946
-31.56396919,-1.115578694
-31.62825426,-1.135679194
-31.69253933,-1.125628944
-31.7568244,-1.10050332
-31.82110947,-1.060302322
-31.88539454,-1.010051074
-31.94967961,-0.969850075
-32.01396468,-0.919598827
-32.07824975,-0.879397829
-32.14253482,-0.869347579
-32.20681989,-0.879397829
-32.27110496,-0.914573702
-32.33539003,-0.979900325
-32.3996751,-1.065327446
-32.46396017,-1.145729443
-32.52824524,-1.286432938
-32.59253031,-1.381910309
-32.65681538,-1.492463054
-32.72110045,-1.572865051
-32.78538552,-1.608040925
-32.84967059,-1.623116299
-32.91395566,-1.633166549
-32.97824073,-1.582915301
-33.0425258,-1.497488179
-33.10681087,-1.391960558
-33.17109594,-1.286432938
-33.23538101,-1.185930442
-33.29966607,-1.10050332
-33.36395114,-1.040201822
-33.42823621,-1.015076198
-33.49252128,-1.020101323
-33.55680635,-1.050252072
-33.62109142,-1.105528445
-33.68537649,-1.195980691
-33.74966156,-1.271357563
-33.81394663,-1.356784685
-33.8782317,-1.417086182
-33.94251677,-1.452262056
-34.00680184,-1.472362555
-34.07108691,-1.452262056
-34.13537198,-1.391960558
-34.19965705,-1.306533437
-34.26394212,-1.190955566
-34.32822719,-1.070352571
-34.39251226,-0.939699326
-34.45679733,-0.819096331
-34.5210824,-0.71356871
-34.58536747,-0.643216963
-34.64965254,-0.592965715
-34.71393761,-0.572865216
-34.77822268,-0.582915466
-34.84250775,-0.633166714
-34.90679282,-0.663317462
-34.97107789,-0.71356871
-35.03536296,-0.773870208
-35.09964802,-0.83919683
-35.16393309,-0.874372704
-35.22821816,-0.919598827
-35.29250323,-0.909548578
-35.3567883,-0.889448078
-35.42107337,-0.844221955
-35.48535844,-0.809046082
-35.54964351,-0.718593835
-35.61392858,-0.648242088
-35.67821365,-0.572865216
-35.74249872,-0.497488344
-35.80678379,-0.427136597
-35.87106886,-0.386935598
-35.93535393,-0.366835099
-35.999639,-0.381910474
-36.06392407,-0.412061222
-36.12820914,-0.467337595
-36.19249421,-0.552764717
-36.25677928,-0.663317462
-36.32106435,-0.773870208
-36.38534942,-0.894473203
-36.44963449,-0.969850075
-36.51391956,-1.035176698
-36.57820463,-1.085427946
-36.6424897,-1.085427946
-36.70677477,-1.050252072
-36.77105984,-0.994975699
-36.83534491,-0.889448078
-36.89962997,-0.768845083
-36.96391504,-0.688443086
-37.02820011,-0.638191838
-37.09248518,-0.567840091
-37.15677025,-0.547739592
-37.22105532,-0.577890341
-37.28534039,-0.638191838
-37.34962546,-0.738694334
-37.41391053,-0.869347579
-37.4781956,-1.000000824
-37.54248067,-1.130654069
-37.60676574,-1.231156565
-37.67105081,-1.326633936
-37.73533588,-1.402010808
-37.79962095,-1.427136432
-37.86390602,-1.427136432
-37.92819109,-1.381910309
-37.99247616,-1.306533437
-38.05676123,-1.21608119
-38.1210463,-1.135679194
-38.18533137,-1.070352571
-38.24961644,-0.9748752
-38.31390151,-0.924623952
-38.37818658,-0.914573702
-38.44247165,-0.929649077
-38.50675672,-0.979900325
-38.57104179,-1.035176698
-38.63532686,-1.105528445
-38.69961192,-1.206030941
-38.76389699,-1.281407813
-38.82818206,-1.36180981
-38.89246713,-1.407035933
-38.9567522,-1.492463054
-39.02103727,-1.48743793
-39.08532234,-1.48743793
-39.14960741,-1.47738768
-39.21389248,-1.427136432
-39.27817755,-1.356784685
-39.34246262,-1.266332438
-39.40674769,-1.175880192
-39.47103276,-1.105528445
-39.53531783,-1.015076198
-39.5996029,-0.939699326
-39.66388797,-0.909548578
-39.72817304,-0.889448078
-39.79245811,-0.884422954
-39.85674318,-0.939699326
-39.92102825,-1.005025949
-39.98531332,-1.070352571
-40.04959839,-1.160804818
-40.11388346,-1.251257064
-40.17816853,-1.34170931
-40.2424536,-1.386935434
-40.30673867,-1.402010808
-40.37102374,-1.376885184
-40.43530881,-1.326633936
-40.49959387,-1.241206814
-40.56387894,-1.105528445
-40.62816401,-0.959799826
-40.69244908,-0.809046082
-40.75673415,-0.708543586
-40.82101922,-0.60804109
-40.88530429,-0.507538594
-40.94958936,-0.477387845
-41.01387443,-0.47236272
-41.0781595,-0.522613968
-41.14244457,-0.628141589
-41.20672964,-0.748744584
-41.27101471,-0.83919683
-41.33529978,-0.959799826
-41.39958485,-1.040201822
-41.46386992,-1.105528445
-41.52815499,-1.140704318
-41.59244006,-1.095478195
-41.65672513,-1.045226947
-41.7210102,-0.96482495
-41.78529527,-0.884422954
-41.84958034,-0.783920458
-41.91386541,-0.668342587
-41.97815048,-0.572865216
-42.04243555,-0.522613968
-42.10672062,-0.477387845
-42.17100569,-0.507538594
-42.23529076,-0.512563718
-42.29957582,-0.557789842
-42.36386089,-0.59799084
-42.42814596,-0.708543586
-42.49243103,-0.763819958
-42.5567161,-0.824121456
-42.62100117,-0.889448078
-42.68528624,-0.919598827
-42.74957131,-0.969850075
-42.81385638,-0.96482495
-42.87814145,-0.96482495
-42.94242652,-0.919598827
-43.00671159,-0.874372704
-43.07099666,-0.804020957
-43.13528173,-0.73366921
-43.1995668,-0.673367712
-43.26385187,-0.628141589
-43.32813694,-0.542714467
-43.39242201,-0.527639093
-43.45670708,-0.527639093
-43.52099215,-0.557789842
-43.58527722,-0.628141589
-43.64956229,-0.71356871
-43.71384736,-0.829146581
-43.77813243,-0.944724451
-43.8424175,-1.065327446
-43.90670257,-1.185930442
-43.97098764,-1.281407813
-44.03527271,-1.336684186
-44.09955777,-1.36180981
-44.16384284,-1.371860059
-44.22812791,-1.321608811
-44.29241298,-1.251257064
-44.35669805,-1.125628944
-44.42098312,-1.050252072
-44.48526819,-0.959799826
-44.54955326,-0.909548578
-44.61383833,-0.864322454
-44.6781234,-0.869347579
-44.74240847,-0.914573702
-44.80669354,-1.000000824
-44.87097861,-1.11055357
-44.93526368,-1.241206814
-44.99954875,-1.376885184
-45.06383382,-1.507538429
-45.12811889,-1.61306605
-45.19240396,-1.683417797
-45.25668903,-1.73869417
-45.3209741,-1.733669045
-45.38525917,-1.693468046
-45.44954424,-1.61306605
-45.51382931,-1.527638928
-45.57811438,-1.422111307
-45.64239945,-1.336684186
-45.70668452,-1.22613144
-45.77096959,-1.155779693
-45.83525466,-1.10050332
-45.89953972,-1.065327446
-45.96382479,-1.070352571
-46.02810986,-1.09045307
-46.09239493,-1.105528445
-46.15668,-1.160804818
-46.22096507,-1.21608119
-46.28525014,-1.296483187
-46.34953521,-1.35175956
-46.41382028,-1.376885184
-46.47810535,-1.386935434
-46.54239042,-1.407035933
-46.60667549,-1.376885184
-46.67096056,-1.306533437
-46.73524563,-1.246231939
-46.7995307,-1.145729443
-46.86381577,-1.035176698
-46.92810084,-0.919598827
-46.99238591,-0.819096331
-47.05667098,-0.72361896
-47.12095605,-0.643216963
-47.18524112,-0.567840091
-47.24952619,-0.542714467
-47.31381126,-0.547739592
-47.37809633,-0.572865216
-47.4423814,-0.618091339
-47.50666647,-0.703518461
-47.57095154,-0.773870208
-47.63523661,-0.854272205
-47.69952167,-0.914573702
-47.76380674,-0.949749576
-47.82809181,-0.934674202
-47.89237688,-0.909548578
-47.95666195,-0.854272205
-48.02094702,-0.763819958
-48.08523209,-0.673367712
-48.14951716,-0.567840091
-48.21380223,-0.457287346
-48.2780873,-0.396985848
-48.34237237,-0.341709475
-48.40665744,-0.306533602
-48.47094251,-0.326634101
-48.53522758,-0.376885349
-48.59951265,-0.47236272
-48.66379772,-0.58794059
-48.72808279,-0.688443086
-48.79236786,-0.783920458
-48.85665293,-0.889448078
-48.920938,-0.969850075
-48.98522307,-1.020101323
-49.04950814,-1.030151573
-49.11379321,-1.010051074
-49.17807828,-0.939699326
-49.24236335,-0.879397829
-49.30664842,-0.798995832
-49.37093349,-0.72361896
-49.43521856,-0.668342587
-49.49950362,-0.58794059
-49.56378869,-0.567840091
-49.62807376,-0.572865216
-49.69235883,-0.59799084
-49.7566439,-0.658292338
-49.82092897,-0.718593835
