time (fs),deltaI
394.7977401,-0.024371849
394.7312759,-0.014321598
394.6648117,-0.009296472
394.5983474,-0.006783909
394.5318832,-0.008040191
394.465419,-0.011809035
394.3989548,-0.018090442
394.3324905,-0.026884412
394.2660263,-0.038190945
394.1995621,-0.046984915
394.1330979,-0.054522604
394.0666336,-0.05954773
394.0001694,-0.062060293
393.9337052,-0.05954773
393.867241,-0.057035167
393.8007767,-0.048241197
393.7343125,-0.038190945
393.6678483,-0.025628131
393.6013841,-0.018090442
393.5349198,-0.011809035
393.4684556,-0.008040191
393.4019914,-0.005527628
393.3355272,-0.006783909
393.2690629,-0.014321598
393.2025987,-0.024371849
393.1361345,-0.035678382
393.0696703,-0.048241197
393.0032061,-0.057035167
392.9367418,-0.064572856
392.8702776,-0.069597981
392.8038134,-0.072110544
392.7373492,-0.067085418
392.6708849,-0.057035167
392.6044207,-0.043216071
392.5379565,-0.029396975
392.4714923,-0.019346724
392.405028,-0.008040191
392.3385638,-0.000502502
392.2720996,0.004522624
392.2056354,0.003266342
392.1391711,-0.003015065
392.0727069,-0.014321598
392.0062427,-0.028140694
391.9397785,-0.04195979
391.8733142,-0.057035167
391.80685,-0.070854263
391.7403858,-0.082160796
391.6739216,-0.089698484
391.6074573,-0.088442203
391.5409931,-0.082160796
391.4745289,-0.073366826
391.4080647,-0.063316574
391.3416004,-0.052010041
391.2751362,-0.040703508
391.208672,-0.029396975
391.1422078,-0.023115568
391.0757435,-0.023115568
391.0092793,-0.026884412
390.9428151,-0.03316582
390.8763509,-0.039447227
390.8098866,-0.05075376
390.7434224,-0.062060293
390.6769582,-0.070854263
390.610494,-0.078391951
390.5440297,-0.082160796
390.4775655,-0.083417077
390.4111013,-0.080904514
390.3446371,-0.07713567
390.2781728,-0.069597981
390.2117086,-0.05954773
390.1452444,-0.05075376
390.0787802,-0.040703508
390.0123159,-0.03316582
389.9458517,-0.024371849
389.8793875,-0.019346724
389.8129233,-0.015577879
389.746459,-0.014321598
389.6799948,-0.015577879
389.6135306,-0.020603005
389.5470664,-0.026884412
389.4806021,-0.03316582
389.4141379,-0.040703508
389.3476737,-0.046984915
389.2812095,-0.052010041
389.2147453,-0.053266323
389.148281,-0.052010041
389.0818168,-0.046984915
389.0153526,-0.038190945
388.9488884,-0.029396975
388.8824241,-0.020603005
388.8159599,-0.011809035
388.7494957,-0.004271346
388.6830315,0.003266342
388.6165672,0.008291468
388.550103,0.009547749
388.4836388,0.007035187
388.4171746,0.003266342
388.3507103,-0.003015065
388.2842461,-0.013065316
388.2177819,-0.023115568
388.1513177,-0.035678382
388.0848534,-0.046984915
388.0183892,-0.054522604
387.951925,-0.058291448
387.8854608,-0.060804011
387.8189965,-0.05954773
387.7525323,-0.054522604
387.6860681,-0.046984915
387.6196039,-0.036934664
387.5531396,-0.029396975
387.4866754,-0.021859287
387.4202112,-0.018090442
387.353747,-0.019346724
387.2872827,-0.020603005
387.2208185,-0.028140694
387.1543543,-0.038190945
387.0878901,-0.05075376
387.0214258,-0.063316574
386.9549616,-0.073366826
386.8884974,-0.080904514
386.8220332,-0.083417077
386.7555689,-0.084673359
386.6891047,-0.078391951
386.6226405,-0.069597981
386.5561763,-0.054522604
386.489712,-0.040703508
386.4232478,-0.026884412
386.3567836,-0.014321598
386.2903194,-0.003015065
386.2238551,0.004522624
386.1573909,0.008291468
386.0909267,0.007035187
386.0244625,0.002010061
385.9579982,-0.005527628
385.891534,-0.016834161
385.8250698,-0.028140694
385.7586056,-0.04195979
385.6921414,-0.052010041
385.6256771,-0.060804011
385.5592129,-0.063316574
385.4927487,-0.063316574
385.4262845,-0.058291448
385.3598202,-0.052010041
385.293356,-0.043216071
385.2268918,-0.034422101
385.1604276,-0.025628131
385.0939633,-0.019346724
385.0274991,-0.015577879
384.9610349,-0.015577879
384.8945707,-0.020603005
384.8281064,-0.025628131
384.7616422,-0.034422101
384.695178,-0.043216071
384.6287138,-0.054522604
384.5622495,-0.064572856
384.4957853,-0.070854263
384.4293211,-0.073366826
384.3628569,-0.072110544
384.2963926,-0.069597981
384.2299284,-0.067085418
384.1634642,-0.05954773
384.097,-0.052010041
384.0305357,-0.043216071
383.9640715,-0.03316582
383.8976073,-0.025628131
383.8311431,-0.019346724
383.7646788,-0.016834161
383.6982146,-0.014321598
383.6317504,-0.014321598
383.5652862,-0.016834161
383.4988219,-0.024371849
383.4323577,-0.031909538
383.3658935,-0.040703508
383.2994293,-0.048241197
383.232965,-0.055778885
383.1665008,-0.062060293
383.1000366,-0.067085418
383.0335724,-0.0683417
382.9671081,-0.065829137
382.9006439,-0.060804011
382.8341797,-0.054522604
382.7677155,-0.048241197
382.7012512,-0.036934664
382.634787,-0.026884412
382.5683228,-0.019346724
382.5018586,-0.013065316
382.4353943,-0.011809035
382.3689301,-0.010552754
382.3024659,-0.014321598
382.2360017,-0.019346724
382.1695374,-0.025628131
382.1030732,-0.035678382
382.036609,-0.046984915
381.9701448,-0.055778885
381.9036806,-0.062060293
381.8372163,-0.065829137
381.7707521,-0.067085418
381.7042879,-0.063316574
381.6378237,-0.055778885
381.5713594,-0.044472352
381.5048952,-0.031909538
381.438431,-0.020603005
381.3719668,-0.010552754
381.3055025,-0.001758784
381.2390383,0.003266342
381.1725741,0.003266342
381.1061099,-0.003015065
381.0396456,-0.011809035
380.9731814,-0.025628131
380.9067172,-0.040703508
380.840253,-0.053266323
380.7737887,-0.064572856
380.7073245,-0.073366826
380.6408603,-0.07713567
380.5743961,-0.07713567
380.5079318,-0.069597981
380.4414676,-0.063316574
380.3750034,-0.052010041
380.3085392,-0.043216071
380.2420749,-0.03316582
380.1756107,-0.025628131
380.1091465,-0.023115568
380.0426823,-0.021859287
379.976218,-0.028140694
379.9097538,-0.03316582
379.8432896,-0.043216071
379.7768254,-0.052010041
379.7103611,-0.064572856
379.6438969,-0.073366826
379.5774327,-0.079648233
379.5109685,-0.084673359
379.4445042,-0.084673359
379.37804,-0.080904514
379.3115758,-0.073366826
379.2451116,-0.064572856
379.1786473,-0.053266323
379.1121831,-0.040703508
379.0457189,-0.029396975
378.9792547,-0.020603005
378.9127904,-0.013065316
378.8463262,-0.010552754
378.779862,-0.010552754
378.7133978,-0.014321598
378.6469335,-0.018090442
378.5804693,-0.024371849
378.5140051,-0.031909538
378.4475409,-0.039447227
378.3810767,-0.044472352
378.3146124,-0.046984915
378.2481482,-0.049497478
378.181684,-0.049497478
378.1152198,-0.052010041
378.0487555,-0.049497478
377.9822913,-0.046984915
377.9158271,-0.045728634
377.8493629,-0.04195979
377.7828986,-0.038190945
377.7164344,-0.034422101
377.6499702,-0.031909538
377.583506,-0.026884412
377.5170417,-0.026884412
377.4505775,-0.024371849
377.3841133,-0.026884412
377.3176491,-0.025628131
377.2511848,-0.028140694
377.1847206,-0.031909538
377.1182564,-0.036934664
377.0517922,-0.04195979
376.9853279,-0.046984915
376.9188637,-0.052010041
376.8523995,-0.052010041
376.7859353,-0.053266323
376.719471,-0.049497478
376.6530068,-0.044472352
376.5865426,-0.035678382
376.5200784,-0.026884412
376.4536141,-0.016834161
376.3871499,-0.009296472
376.3206857,-0.005527628
376.2542215,-0.003015065
376.1877572,-0.005527628
376.121293,-0.009296472
376.0548288,-0.020603005
375.9883646,-0.030653257
375.9219003,-0.043216071
375.8554361,-0.055778885
375.7889719,-0.065829137
375.7225077,-0.074623107
375.6560434,-0.078391951
375.5895792,-0.080904514
375.523115,-0.075879388
375.4566508,-0.070854263
375.3901865,-0.060804011
375.3237223,-0.052010041
375.2572581,-0.044472352
375.1907939,-0.038190945
375.1243296,-0.03316582
375.0578654,-0.035678382
374.9914012,-0.039447227
374.924937,-0.046984915
374.8584727,-0.055778885
374.7920085,-0.064572856
374.7255443,-0.074623107
374.6590801,-0.078391951
374.5926159,-0.083417077
374.5261516,-0.078391951
374.4596874,-0.074623107
374.3932232,-0.062060293
374.326759,-0.052010041
374.2602947,-0.040703508
374.1938305,-0.028140694
374.1273663,-0.020603005
374.0609021,-0.015577879
373.9944378,-0.013065316
373.9279736,-0.013065316
373.8615094,-0.018090442
373.7950452,-0.023115568
373.7285809,-0.030653257
373.6621167,-0.036934664
373.5956525,-0.043216071
373.5291883,-0.045728634
373.462724,-0.045728634
373.3962598,-0.044472352
373.3297956,-0.036934664
373.2633314,-0.030653257
373.1968671,-0.019346724
373.1304029,-0.013065316
373.0639387,-0.003015065
372.9974745,0.004522624
372.9310102,0.009547749
372.864546,0.012060312
372.7980818,0.009547749
372.7316176,0.005778905
372.6651533,-0.000502502
372.5986891,-0.005527628
372.5322249,-0.016834161
372.4657607,-0.023115568
372.3992964,-0.031909538
372.3328322,-0.034422101
372.266368,-0.040703508
372.1999038,-0.040703508
372.1334395,-0.043216071
372.0669753,-0.043216071
372.0005111,-0.043216071
371.9340469,-0.043216071
371.8675826,-0.04195979
371.8011184,-0.043216071
371.7346542,-0.04195979
371.66819,-0.044472352
371.6017257,-0.04195979
371.5352615,-0.045728634
371.4687973,-0.044472352
371.4023331,-0.048241197
371.3358688,-0.049497478
371.2694046,-0.053266323
371.2029404,-0.057035167
371.1364762,-0.058291448
371.070012,-0.05954773
371.0035477,-0.05954773
370.9370835,-0.062060293
370.8706193,-0.062060293
370.8041551,-0.064572856
370.7376908,-0.062060293
370.6712266,-0.062060293
370.6047624,-0.060804011
370.5382982,-0.058291448
370.4718339,-0.054522604
370.4053697,-0.048241197
370.3389055,-0.045728634
370.2724413,-0.039447227
370.205977,-0.038190945
370.1395128,-0.031909538
370.0730486,-0.031909538
370.0065844,-0.031909538
369.9401201,-0.034422101
369.8736559,-0.038190945
369.8071917,-0.04195979
369.7407275,-0.045728634
369.6742632,-0.049497478
369.607799,-0.052010041
369.5413348,-0.048241197
369.4748706,-0.044472352
369.4084063,-0.03316582
369.3419421,-0.025628131
369.2754779,-0.011809035
369.2090137,-0.003015065
369.1425494,0.005778905
369.0760852,0.012060312
369.009621,0.014572875
368.9431568,0.014572875
368.8766925,0.007035187
368.8102283,-0.000502502
368.7437641,-0.011809035
368.6772999,-0.020603005
368.6108356,-0.03316582
368.5443714,-0.040703508
368.4779072,-0.048241197
368.411443,-0.048241197
368.3449787,-0.044472352
368.2785145,-0.038190945
368.2120503,-0.028140694
368.1455861,-0.018090442
368.0791218,-0.008040191
368.0126576,-0.001758784
367.9461934,0.007035187
367.8797292,0.008291468
367.8132649,0.008291468
367.7468007,0.002010061
367.6803365,-0.006783909
367.6138723,-0.015577879
367.547408,-0.026884412
367.4809438,-0.034422101
367.4144796,-0.044472352
367.3480154,-0.045728634
367.2815512,-0.049497478
367.2150869,-0.046984915
367.1486227,-0.043216071
367.0821585,-0.035678382
367.0156943,-0.030653257
366.94923,-0.025628131
366.8827658,-0.024371849
366.8163016,-0.023115568
366.7498374,-0.024371849
366.6833731,-0.031909538
366.6169089,-0.036934664
366.5504447,-0.048241197
366.4839805,-0.057035167
366.4175162,-0.0683417
366.351052,-0.073366826
366.2845878,-0.080904514
366.2181236,-0.080904514
366.1516593,-0.080904514
366.0851951,-0.074623107
366.0187309,-0.0683417
365.9522667,-0.062060293
365.8858024,-0.054522604
365.8193382,-0.05075376
365.752874,-0.046984915
365.6864098,-0.048241197
365.6199455,-0.049497478
365.5534813,-0.055778885
365.4870171,-0.063316574
365.4205529,-0.069597981
365.3540886,-0.074623107
365.2876244,-0.078391951
365.2211602,-0.082160796
365.154696,-0.082160796
365.0882317,-0.083417077
365.0217675,-0.079648233
364.9553033,-0.079648233
364.8888391,-0.07713567
364.8223748,-0.078391951
364.7559106,-0.078391951
364.6894464,-0.078391951
364.6229822,-0.078391951
364.5565179,-0.078391951
364.4900537,-0.080904514
364.4235895,-0.078391951
364.3571253,-0.07713567
364.290661,-0.072110544
364.2241968,-0.069597981
364.1577326,-0.063316574
364.0912684,-0.05954773
364.0248041,-0.055778885
363.9583399,-0.053266323
363.8918757,-0.052010041
363.8254115,-0.053266323
363.7589473,-0.054522604
363.692483,-0.055778885
363.6260188,-0.058291448
363.5595546,-0.058291448
363.4930904,-0.05954773
363.4266261,-0.055778885
363.3601619,-0.054522604
363.2936977,-0.045728634
363.2272335,-0.039447227
363.1607692,-0.026884412
363.094305,-0.018090442
363.0278408,-0.009296472
362.9613766,-0.000502502
362.8949123,0.003266342
362.8284481,0.005778905
362.7619839,0.002010061
362.6955197,0.000753779
362.6290554,-0.006783909
362.5625912,-0.014321598
362.496127,-0.020603005
362.4296628,-0.024371849
362.3631985,-0.026884412
362.2967343,-0.026884412
362.2302701,-0.020603005
362.1638059,-0.014321598
362.0973416,-0.005527628
362.0308774,0.002010061
361.9644132,0.009547749
361.897949,0.010804031
361.8314847,0.010804031
361.7650205,0.005778905
361.6985563,-0.004271346
361.6320921,-0.015577879
361.5656278,-0.029396975
361.4991636,-0.04195979
361.4326994,-0.053266323
361.3662352,-0.05954773
361.2997709,-0.064572856
361.2333067,-0.062060293
361.1668425,-0.057035167
361.1003783,-0.045728634
361.033914,-0.034422101
360.9674498,-0.021859287
360.9009856,-0.010552754
360.8345214,-0.003015065
360.7680571,0.002010061
360.7015929,-0.000502502
360.6351287,-0.005527628
360.5686645,-0.015577879
360.5022002,-0.026884412
360.435736,-0.040703508
360.3692718,-0.05075376
360.3028076,-0.05954773
360.2363433,-0.067085418
360.1698791,-0.0683417
360.1034149,-0.065829137
360.0369507,-0.05954773
359.9704865,-0.05075376
359.9040222,-0.038190945
359.837558,-0.028140694
359.7710938,-0.018090442
359.7046296,-0.010552754
359.6381653,-0.005527628
359.5717011,-0.004271346
359.5052369,-0.008040191
359.4387727,-0.014321598
359.3723084,-0.025628131
359.3058442,-0.035678382
359.23938,-0.046984915
359.1729158,-0.057035167
359.1064515,-0.065829137
359.0399873,-0.069597981
358.9735231,-0.072110544
358.9070589,-0.069597981
358.8405946,-0.067085418
358.7741304,-0.063316574
358.7076662,-0.057035167
358.641202,-0.052010041
358.5747377,-0.046984915
358.5082735,-0.043216071
358.4418093,-0.04195979
358.3753451,-0.043216071
358.3088808,-0.044472352
358.2424166,-0.049497478
358.1759524,-0.052010041
358.1094882,-0.055778885
358.0430239,-0.05954773
357.9765597,-0.062060293
357.9100955,-0.062060293
357.8436313,-0.060804011
357.777167,-0.058291448
357.7107028,-0.053266323
357.6442386,-0.05075376
357.5777744,-0.044472352
357.5113101,-0.04195979
357.4448459,-0.036934664
357.3783817,-0.034422101
357.3119175,-0.03316582
357.2454532,-0.030653257
357.178989,-0.028140694
357.1125248,-0.025628131
357.0460606,-0.024371849
356.9795963,-0.020603005
356.9131321,-0.021859287
356.8466679,-0.020603005
356.7802037,-0.019346724
356.7137394,-0.019346724
356.6472752,-0.020603005
356.580811,-0.021859287
356.5143468,-0.024371849
356.4478826,-0.026884412
356.3814183,-0.026884412
356.3149541,-0.028140694
356.2484899,-0.026884412
356.1820257,-0.025628131
356.1155614,-0.019346724
356.0490972,-0.015577879
355.982633,-0.009296472
355.9161688,-0.008040191
355.8497045,-0.005527628
355.7832403,-0.005527628
355.7167761,-0.006783909
355.6503119,-0.013065316
355.5838476,-0.019346724
355.5173834,-0.030653257
355.4509192,-0.04195979
355.384455,-0.05075376
355.3179907,-0.060804011
355.2515265,-0.0683417
355.1850623,-0.073366826
355.1185981,-0.074623107
355.0521338,-0.072110544
354.9856696,-0.065829137
354.9192054,-0.058291448
354.8527412,-0.048241197
354.7862769,-0.039447227
354.7198127,-0.035678382
354.6533485,-0.031909538
354.5868843,-0.031909538
354.52042,-0.038190945
354.4539558,-0.045728634
354.3874916,-0.058291448
354.3210274,-0.070854263
354.2545631,-0.080904514
354.1880989,-0.089698484
354.1216347,-0.09472361
354.0551705,-0.095979892
353.9887062,-0.092211047
353.922242,-0.083417077
353.8557778,-0.070854263
353.7893136,-0.054522604
353.7228493,-0.04195979
353.6563851,-0.028140694
353.5899209,-0.020603005
353.5234567,-0.015577879
353.4569924,-0.015577879
353.3905282,-0.023115568
353.324064,-0.031909538
353.2575998,-0.044472352
353.1911355,-0.054522604
353.1246713,-0.065829137
353.0582071,-0.070854263
352.9917429,-0.075879388
352.9252786,-0.073366826
352.8588144,-0.065829137
352.7923502,-0.054522604
352.725886,-0.040703508
352.6594218,-0.025628131
352.5929575,-0.011809035
352.5264933,-0.000502502
352.4600291,0.010804031
352.3935649,0.015829157
352.3271006,0.017085438
352.2606364,0.013316594
352.1941722,0.005778905
352.127708,-0.001758784
352.0612437,-0.013065316
351.9947795,-0.021859287
351.9283153,-0.030653257
351.8618511,-0.036934664
351.7953868,-0.038190945
351.7289226,-0.035678382
351.6624584,-0.030653257
351.5959942,-0.023115568
351.5295299,-0.015577879
351.4630657,-0.004271346
351.3966015,0.004522624
351.3301373,0.013316594
351.263673,0.017085438
351.1972088,0.01834172
351.1307446,0.017085438
351.0642804,0.014572875
350.9978161,0.010804031
350.9313519,0.004522624
350.8648877,-0.000502502
350.7984235,-0.008040191
350.7319592,-0.013065316
350.665495,-0.016834161
350.5990308,-0.020603005
350.5325666,-0.024371849
350.4661023,-0.025628131
350.3996381,-0.025628131
350.3331739,-0.026884412
350.2667097,-0.023115568
350.2002454,-0.023115568
350.1337812,-0.024371849
350.067317,-0.024371849
350.0008528,-0.025628131
349.9343885,-0.025628131
349.8679243,-0.029396975
349.8014601,-0.031909538
349.7349959,-0.039447227
349.6685316,-0.044472352
349.6020674,-0.053266323
349.5356032,-0.05954773
349.469139,-0.0683417
349.4026747,-0.075879388
349.3362105,-0.084673359
349.2697463,-0.089698484
349.2032821,-0.093467329
349.1368179,-0.093467329
349.0703536,-0.089698484
349.0038894,-0.08592964
348.9374252,-0.07713567
348.870961,-0.067085418
348.8044967,-0.055778885
348.7380325,-0.048241197
348.6715683,-0.040703508
348.6051041,-0.039447227
348.5386398,-0.038190945
348.4721756,-0.04195979
348.4057114,-0.048241197
348.3392472,-0.058291448
348.2727829,-0.0683417
348.2063187,-0.07713567
348.1398545,-0.083417077
348.0733903,-0.08592964
348.006926,-0.087185921
347.9404618,-0.083417077
347.8739976,-0.075879388
347.8075334,-0.064572856
347.7410691,-0.053266323
347.6746049,-0.040703508
347.6081407,-0.030653257
347.5416765,-0.024371849
347.4752122,-0.020603005
347.408748,-0.020603005
347.3422838,-0.026884412
347.2758196,-0.039447227
347.2093553,-0.05075376
347.1428911,-0.063316574
347.0764269,-0.073366826
347.0099627,-0.080904514
346.9434984,-0.084673359
346.8770342,-0.082160796
346.81057,-0.07713567
346.7441058,-0.063316574
346.6776415,-0.046984915
346.6111773,-0.029396975
346.5447131,-0.013065316
346.4782489,0.003266342
346.4117846,0.017085438
346.3453204,0.02713569
346.2788562,0.030904534
346.212392,0.030904534
346.1459277,0.024623127
346.0794635,0.013316594
346.0129993,0.004522624
345.9465351,-0.008040191
345.8800708,-0.019346724
345.8136066,-0.030653257
345.7471424,-0.036934664
345.6806782,-0.040703508
345.6142139,-0.038190945
345.5477497,-0.035678382
345.4812855,-0.030653257
345.4148213,-0.026884412
345.3483571,-0.020603005
345.2818928,-0.015577879
345.2154286,-0.014321598
345.1489644,-0.015577879
345.0825002,-0.023115568
345.0160359,-0.031909538
344.9495717,-0.040703508
344.8831075,-0.052010041
344.8166433,-0.063316574
344.750179,-0.073366826
344.6837148,-0.082160796
344.6172506,-0.087185921
344.5507864,-0.088442203
344.4843221,-0.087185921
344.4178579,-0.082160796
344.3513937,-0.07713567
344.2849295,-0.0683417
344.2184652,-0.057035167
344.152001,-0.045728634
344.0855368,-0.038190945
344.0190726,-0.030653257
343.9526083,-0.025628131
343.8861441,-0.021859287
343.8196799,-0.019346724
343.7532157,-0.020603005
343.6867514,-0.024371849
343.6202872,-0.03316582
343.553823,-0.039447227
343.4873588,-0.049497478
343.4208945,-0.055778885
343.3544303,-0.065829137
343.2879661,-0.072110544
343.2215019,-0.07713567
343.1550376,-0.07713567
343.0885734,-0.072110544
343.0221092,-0.067085418
342.955645,-0.05954773
342.8891807,-0.05075376
342.8227165,-0.040703508
342.7562523,-0.030653257
342.6897881,-0.020603005
342.6233238,-0.016834161
342.5568596,-0.015577879
342.4903954,-0.014321598
342.4239312,-0.015577879
342.3574669,-0.018090442
342.2910027,-0.024371849
342.2245385,-0.030653257
342.1580743,-0.039447227
342.09161,-0.04195979
342.0251458,-0.044472352
341.9586816,-0.04195979
341.8922174,-0.039447227
341.8257532,-0.03316582
341.7592889,-0.024371849
341.6928247,-0.014321598
341.6263605,-0.005527628
341.5598963,0.002010061
341.493432,0.005778905
341.4269678,0.007035187
341.3605036,0.007035187
341.2940394,0.004522624
341.2275751,-0.005527628
341.1611109,-0.016834161
