time,field
-60.0,4.248849835229624e-7
-59.87987987987989,1.4729094668317218e-7
-59.75975975975977,-9.585312578055881e-9
-59.63963963963963,-6.736175245791876e-8
-59.51951951951952,-6.603169385212083e-8
-59.3993993993994,-4.073271324756621e-8
-59.27927927927929,-1.46943032228894e-8
-59.15915915915917,5.311964082437497e-10
-59.03903903903903,3.0289299273217125e-9
-58.91891891891892,-2.779855929925902e-9
-58.7987987987988,-1.0728769561238891e-8
-58.678678678678686,-1.6913279305420318e-8
-58.558558558558566,-2.0896465696389848e-8
-58.43843843843844,-2.4125415956574116e-8
-58.31831831831831,-2.7954155381436796e-8
-58.1981981981982,-3.339578835728324e-8
-58.07807807807808,-4.193468865775917e-8
-57.957957957957966,-5.472992312235166e-8
-57.83783783783784,-6.909916653281804e-8
-57.71771771771771,-7.477259145934479e-8
-57.5975975975976,-5.391868012583972e-8
-57.47747747747748,1.3012746897645868e-8
-57.357357357357365,1.3579897047214268e-7
-57.23723723723724,2.973919846406312e-7
-57.11711711711711,4.3228126705415663e-7
-56.996996996997,4.090092654182889e-7
-56.87687687687688,3.9131998679456077e-8
-56.756756756756765,-8.584430132619212e-7
-56.63663663663664,-2.3255151228450547e-6
-56.51651651651651,-4.097357238303747e-6
-56.3963963963964,-5.48669210698236e-6
-56.27627627627628,-5.432132858486759e-6
-56.156156156156165,-2.7870078430100695e-6
-56.03603603603604,3.185899306171642e-6
-55.91591591591591,1.2292164014879517e-5
-55.79579579579579,2.3129001187928616e-5
-55.67567567567568,3.3286446869993835e-5
-55.55555555555556,4.006003561344044e-5
-55.435435435435444,4.143246487182483e-5
-55.31531531531532,3.6888148356803815e-5
-55.19519519519519,2.7654271433569614e-5
-55.07507507507508,1.622910083576929e-5
-54.95495495495496,5.420065924726792e-6
-54.834834834834844,-2.6458865087491127e-6
-54.714714714714724,-7.0987403904252974e-6
-54.59459459459459,-8.30515317204724e-6
-54.474474474474476,-7.387803791837302e-6
-54.354354354354356,-5.608516536880271e-6
-54.23423423423424,-3.91530392830235e-6
-54.11411411411412,-2.780621599555658e-6
-53.993993993993996,-2.2770022183312138e-6
-53.87387387387388,-2.252566116809842e-6
-53.753753753753756,-2.4917381563102742e-6
-53.633633633633636,-2.8134799599182626e-6
-53.51351351351352,-3.10897556530882e-6
-53.393393393393396,-3.3376332916089356e-6
-53.27327327327328,-3.5017833773439354e-6
-53.153153153153156,-3.619336905251411e-6
-53.033033033033036,-3.7074522211433644e-6
-52.91291291291292,-3.7783091810568847e-6
-52.7927927927928,-3.840026182947007e-6
-52.672672672672675,-3.897336633607282e-6
-52.552552552552555,-3.950490962085956e-6
-52.432432432432435,-3.989945450511784e-6
-52.31231231231232,-3.984918075938856e-6
-52.1921921921922,-3.87363917895387e-6
-52.072072072072075,-3.5743266836256754e-6
-51.95195195195195,-3.033259232415681e-6
-51.831831831831835,-2.3095370592735475e-6
-51.711711711711715,-1.678784546075666e-6
-51.5915915915916,-1.7220120768058292e-6
-51.471471471471475,-3.3348197365116535e-6
-51.35135135135135,-7.547215656023601e-6
-51.231231231231234,-1.5038323615230588e-5
-51.111111111111114,-2.5340101488387204e-5
-50.990990990991,-3.5964559177480025e-5
-50.87087087087087,-4.1946535784972644e-5
-50.75075075075075,-3.6363991915497965e-5
-50.630630630630634,-1.2121287506146155e-5
-50.510510510510514,3.530895681095742e-5
-50.3903903903904,0.00010513109322892982
-50.270270270270274,0.00018972463006128204
-50.15015015015015,0.00027539318363979914
-50.030030030030034,0.0003455275714476667
-49.90990990990991,0.00038528855814994094
-49.7897897897898,0.00038614363832650497
-49.66966966966967,0.00034851955732625756
-49.549549549549546,0.00028153947601167574
-49.429429429429426,0.0001999898809777733
-49.30930930930931,0.0001197563620764868
-49.18918918918919,5.3475387414908265e-5
-49.06906906906907,7.875884961467583e-6
-48.948948948948946,-1.6571400733637084e-5
-48.828828828828826,-2.4059481974656283e-5
-48.70870870870871,-2.0915057274132298e-5
-48.58858858858859,-1.3233349295576589e-5
-48.468468468468465,-5.409204842069572e-6
-48.348348348348345,2.72124738585634e-7
-48.228228228228225,3.261023193534348e-6
-48.10810810810811,4.035435092423441e-6
-47.98798798798799,3.4346140421068113e-6
-47.867867867867865,2.2253928578757755e-6
-47.74774774774775,9.2148009003972e-7
-47.627627627627625,-2.1970675462408192e-7
-47.507507507507505,-1.1200854161998357e-6
-47.38738738738739,-1.7953331081393314e-6
-47.267267267267265,-2.291132602109359e-6
-47.14714714714715,-2.6421188083929637e-6
-47.027027027027025,-2.8439851323836865e-6
-46.906906906906904,-2.831169329153294e-6
-46.78678678678679,-2.465284083407481e-6
-46.666666666666664,-1.5650974848447009e-6
-46.546546546546544,-2.9380673838063343e-8
-46.426426426426424,1.915016096399282e-6
-46.306306306306304,3.376127860364673e-6
-46.18618618618619,2.4985599065181768e-6
-46.06606606606607,-3.577900854713219e-6
-45.945945945945944,-1.820021313782448e-5
-45.82582582582582,-4.3797120786764435e-5
-45.705705705705704,-7.944806706950266e-5
-45.585585585585584,-0.00011783434673469297
-45.46546546546547,-0.00014279041230595533
-45.34534534534535,-0.00012928223688937033
-45.22522522522523,-4.742774004309589e-5
-45.1051051051051,0.00012917620762824736
-44.98498498498498,0.0004126873240781957
-44.86486486486487,0.0007915977997136871
-44.74474474474475,0.001227008344656416
-44.62462462462462,0.0016575176783783624
-44.5045045045045,0.002012558390427042
-44.38438438438438,0.00223049518382862
-44.26426426426427,0.0022754749510077448
-44.14414414414415,0.0021470747745023725
-44.02402402402404,0.0018793646684392127
-43.90390390390391,0.0015300126013676567
-43.78378378378378,0.0011637186429601703
-43.66366366366367,0.0008359608740577449
-43.54354354354355,0.0005821592674102023
-43.42342342342343,0.0004145827104755092
-43.30330330330331,0.0003261388313180482
-43.18318318318319,0.0002980500262757889
-43.06306306306306,0.00030798771435381424
-42.94294294294295,0.0003361978559088165
-42.82282282282283,0.0003686505998844664
-42.70270270270271,0.0003975079998147225
-42.58258258258259,0.0004198740130679527
-42.46246246246246,0.0004358938505177666
-42.34234234234235,0.0004470167204571604
-42.22222222222223,0.0004548282358449766
-42.10210210210211,0.0004604939951911794
-41.98198198198199,0.0004646449485580822
-41.86186186186186,0.000467491527068334
-41.74174174174175,0.00046901043384337774
-41.62162162162163,0.0004691236247459439
-41.50150150150151,0.00046783614450678865
-41.38138138138139,0.0004653078087993705
-41.26126126126126,0.0004618085356681429
-41.14114114114114,0.000457468632807964
-41.02102102102103,0.00045173706290067557
-40.90090090090091,0.00044257128715931944
-40.78078078078079,0.0004256184109780479
-40.66066066066066,0.00039394263028493497
-40.54054054054054,0.0003391053625342417
-40.42042042042043,0.0002544882444315201
-40.30030030030031,0.00014143806829086428
-40.18018018018019,1.7780949873123546e-5
-40.06006006006006,-7.359940151381472e-5
-39.93993993993994,-6.0495580260495126e-5
-39.81981981981983,0.0001532830512702183
-39.69969969969971,0.000669346625261786
-39.57957957957959,0.0015639844493214954
-39.45945945945945,0.002852563570135474
-39.33933933933934,0.004461424394254502
-39.21921921921922,0.006220465456932082
-39.09909909909911,0.007884712633755283
-38.978978978978986,0.00918354973232239
-38.85885885885885,0.00988541172282545
-38.73873873873874,0.00985821827262463
-38.61861861861862,0.009105356029515507
-38.498498498498506,0.007764519816410303
-38.378378378378386,0.006069589029256213
-38.25825825825826,0.004288748070403148
-38.13813813813814,0.0026597835221441528
-38.01801801801802,0.0013427695735505236
-37.89789789789789,0.00040193598280065815
-37.777777777777786,-0.00018338439836346676
-37.65765765765766,-0.0004887534907995407
-37.53753753753753,-0.0006096691379198885
-37.41741741741742,-0.0006334630196310751
-37.29729729729729,-0.0006238087371764599
-37.177177177177185,-0.0006174331290795936
-37.05705705705706,-0.0006289203220517316
-36.93693693693693,-0.0006587420040591286
-36.81681681681682,-0.0007008427057504207
-36.69669669669669,-0.0007479359006457324
-36.576576576576585,-0.0007942205099351672
-36.45645645645645,-0.0008361335028531629
-36.33633633633633,-0.0008720109952769877
-36.21621621621622,-0.0009013706452622186
-36.0960960960961,-0.0009242280475989712
-35.975975975975985,-0.0009406293495818763
-35.85585585585586,-0.0009504950894309968
-35.73573573573574,-0.0009538930962101115
-35.61561561561562,-0.0009518918651680863
-35.4954954954955,-0.000948049772993886
-35.375375375375384,-0.0009502472553339601
-35.255255255255264,-0.0009719666245524528
-35.13513513513514,-0.001031439460026511
-35.01501501501501,-0.001146613232160225
-34.8948948948949,-0.001324041013614614
-34.77477477477478,-0.0015411323839904945
-34.65465465465466,-0.0017242488076789559
-34.534534534534544,-0.0017296571210376015
-34.41441441441441,-0.0013385947462305051
-34.294294294294296,-0.0002785170469964125
-34.174174174174176,0.0017228113929866054
-34.05405405405406,0.004855513889081684
-33.93393393393394,0.009137695378243627
-33.813813813813816,0.014347677592607758
-33.693693693693696,0.020009099482266094
-33.573573573573576,0.025447224500670457
-33.45345345345346,0.029912413728265343
-33.33333333333334,0.03274216562552526
-33.21321321321322,0.033516189337951766
-33.09309309309309,0.032157294386443554
-32.972972972972975,0.028946349705119546
-32.852852852852855,0.02444707193252978
-32.732732732732735,0.01936558516678477
-32.61261261261262,0.014389275189680637
-32.49249249249249,0.010052231090878825
-32.372372372372375,0.006660568122731921
-32.252252252252255,0.004287160228019092
-32.132132132132135,0.002822118987516754
-32.01201201201202,0.002051422208710885
-31.891891891891888,0.0017347661659874365
-31.77177177177177,0.0016624362462807432
-31.651651651651655,0.0016837445468118836
-31.531531531531535,0.001710481824947071
-31.411411411411418,0.0017046607724858197
-31.291291291291287,0.001660484237535005
-31.17117117117117,0.001587799702281013
-31.051051051051054,0.0015005691758248772
-30.930930930930938,0.0014107731736738868
-30.810810810810818,0.0013264220776755566
-30.69069069069069,0.0012518902711410257
-30.57057057057057,0.001189092204340293
-30.450450450450454,0.0011385243491567405
-30.330330330330337,0.0010995767193838484
-30.210210210210214,0.0010697309743381393
-30.09009009009009,0.0010424799694686018
-29.969969969969966,0.001004312434558424
-29.84984984984985,0.0009320673816082529
-29.729729729729733,0.0007932697295393967
-29.609609609609613,0.0005532206319054962
-29.489489489489486,0.00019286106610276222
-29.369369369369366,-0.0002601981577760775
-29.24924924924925,-0.0006895499487035867
-29.129129129129133,-0.0008464090513859232
-29.009009009009013,-0.00032311495025253437
-28.888888888888886,0.0014321309366500984
-28.768768768768766,0.00503879777102925
-28.64864864864865,0.011041745125474041
-28.528528528528533,0.0197254775265199
-28.408408408408416,0.030934142415085256
-28.28828828828829,0.04396101670366735
-28.16816816816816,0.05756362311473668
-28.048048048048045,0.07012925303857881
-27.92792792792792,0.07996891735280694
-27.807807807807812,0.08567152276344518
-27.68768768768769,0.08642211306132808
-27.56756756756756,0.08219086089618817
-27.447447447447445,0.07373483362589632
-27.32732732732732,0.06241143834053745
-27.20720720720721,0.049860724757413835
-27.087087087087088,0.03765183745300542
-26.96696696696696,0.026992957632062713
-26.846846846846844,0.01857395938457084
-26.726726726726728,0.012560525314949863
-26.60660660660661,0.008708913842418496
-26.486486486486484,0.0065407059987923856
-26.366366366366364,0.0055144499650352065
-26.246246246246244,0.00515075344194649
-26.126126126126128,0.00509550857494934
-26.00600600600601,0.005129361866477013
-25.885885885885884,0.005143487278552994
-25.765765765765764,0.0051025806988255085
-25.645645645645647,0.005010178995759731
-25.525525525525524,0.004883739732055712
-25.405405405405407,0.004740650037485654
-25.28528528528529,0.004592763927764933
-25.16516516516517,0.004445990692036295
-25.045045045045043,0.004301900805520117
-24.924924924924923,0.004159256840936177
-24.804804804804807,0.004014199018116684
-24.68468468468469,0.003858428448660356
-24.56456456456457,0.0036754345977646633
-24.444444444444454,0.003436014920719586
-24.324324324324323,0.003096218492033406
-24.20420420420421,0.0026030506360147352
-24.08408408408408,0.0019147699035035911
-23.963963963963963,0.0010420695062789262
-23.843843843843846,0.00011207126579121966
-23.72372372372372,-0.0005522630693772506
-23.60360360360361,-0.0003585786360160925
-23.48348348348348,0.0015869407692788923
-23.363363363363362,0.006427890798395292
-23.243243243243246,0.015390277124082054
-23.12312312312312,0.029499049069898118
-23.003003003003013,0.04922478019018958
-22.882882882882885,0.07415193549183625
-22.76276276276276,0.10278292789094895
-22.64264264264264,0.13257675948520878
-22.522522522522518,0.16026525433177027
-22.40240240240241,0.18240791615441562
-22.282282282282285,0.19606495981754157
-22.16216216216217,0.19941689185183117
-22.04204204204204,0.19215977854161834
-21.921921921921914,0.17556226427584848
-21.80180180180181,0.15216705104886813
-21.68168168168168,0.12522360272462146
-21.561561561561565,0.09801391990680013
-21.441441441441448,0.07325335824525697
-21.321321321321317,0.05270879722904604
-21.201201201201208,0.03709520719008916
-21.08108108108108,0.026221803505035904
-20.960960960960964,0.01929358593846948
-20.840840840840844,0.015252203851418952
-20.720720720720717,0.013060436126810527
-20.60060060060061,0.011879488366022418
-20.48048048048048,0.011135045382553346
-20.360360360360364,0.01049987208366652
-20.24024024024024,0.009832257975997207
-20.120120120120117,0.009104789161027055
-20.000000000000007,0.008345048812607288
-19.87987987987988,0.007596452590434807
-19.759759759759763,0.006897935929586809
-19.63963963963964,0.006276724832424171
-19.519519519519516,0.005747825281431675
-19.399399399399407,0.005315264165272466
-19.279279279279276,0.004971972603847942
-19.15915915915916,0.004696890639485871
-19.039039039039043,0.004449607010246577
-18.91891891891892,0.004165208862674241
-18.798798798798806,0.0037552677428677687
-18.67867867867868,0.003124385597605854
-18.55855855855856,0.0022137141021515492
-18.43843843843844,0.0010807881290024702
-18.31831831831832,1.6238916622315437e-5
-18.198198198198206,-0.00031907126206021644
-18.078078078078075,0.001223362231707471
-17.95795795795796,0.006315413986729186
-17.837837837837842,0.017036782746841502
-17.717717717717715,0.035560435738500575
-17.597597597597602,0.06364674059960711
-17.477477477477482,0.10203112239433652
-17.357357357357355,0.14986115770615877
-17.237237237237238,0.20437152741137057
-17.117117117117118,0.26095677763175856
-16.996996996997,0.3137111190100527
-16.87687687687688,0.35637394453110116
-16.756756756756765,0.383489135141717
-16.636636636636638,0.39150001277666174
-16.516516516516518,0.379493894527624
-16.396396396396394,0.3493906426548605
-16.276276276276278,0.3055182523060081
-16.15615615615616,0.25368949292990683
-16.03603603603604,0.2000304989141816
-15.915915915915916,0.14986889668199244
-15.795795795795794,0.10694792043538533
-15.675675675675677,0.07311228394884736
-15.55555555555556,0.048458491758352484
-15.435435435435439,0.031813348302496235
-15.315315315315313,0.021341708597094555
-15.195195195195193,0.015098583594224746
-15.075075075075077,0.011409745228358179
-14.954954954954959,0.009050022330252885
-14.834834834834838,0.007254769811925959
-14.714714714714713,0.005631113566883891
-14.594594594594591,0.004034365393061562
-14.474474474474475,0.0024550603312569062
-14.354354354354358,0.0009378815213620228
-14.234234234234236,-0.0004651884579921477
-14.11411411411411,-0.001715476682158801
-13.993993993993989,-0.0027928340157595474
-13.873873873873872,-0.0036947401077879467
-13.753753753753756,-0.0044354759171919824
-13.633633633633636,-0.00504844421948596
-13.513513513513514,-0.005591780919123858
-13.393393393393389,-0.006153964855134385
-13.273273273273272,-0.006851709539855357
-13.153153153153156,-0.007807584086997763
-13.033033033033034,-0.009091648621590152
-12.912912912912912,-0.010613237641521047
-12.792792792792795,-0.011959562554037193
-12.67267267267267,-0.012199484155714988
-12.552552552552548,-0.009702215812941426
-12.432432432432437,-0.0020532559286880092
-12.312312312312311,0.013833375916705396
-12.192192192192195,0.041326741401258714
-12.072072072072078,0.0833989957050602
-11.951951951951948,0.14174296258129546
-11.831831831831835,0.2158858161819039
-11.711711711711715,0.3025604262366451
-11.591591591591593,0.3955901842080726
-11.471471471471476,0.48644070753809265
-11.351351351351346,0.5654216081171388
-11.231231231231234,0.6233294437414729
-11.111111111111112,0.6531704311917503
-10.990990990990992,0.6515422937583879
-10.870870870870876,0.6193165205753027
-10.750750750750745,0.5614350836760822
-10.630630630630638,0.4858707712620368
-10.510510510510512,0.4020247647580217
-10.39039039039039,0.3189762885251594
-10.270270270270274,0.24401186234097622
-10.150150150150143,0.1817459890365103
-10.030030030030035,0.13394688926079293
-9.90990990990991,0.09997343358348652
-9.789789789789788,0.07758334106049057
-9.669669669669672,0.06382760494394268
-9.54954954954954,0.05579756725286368
-9.429429429429435,0.05109918282851653
-9.309309309309304,0.04804209575737549
-9.189189189189188,0.04561009877513398
-9.069069069069071,0.043310203304235746
-8.948948948948944,0.040988094598447364
-8.828828828828833,0.03866730612411887
-8.708708708708702,0.03643648265072854
-8.588588588588586,0.034384861345780046
-8.468468468468469,0.032573738835443254
-8.348348348348344,0.031028898577543085
-8.22822822822823,0.029741494946125914
-8.10810810810811,0.02866921294030071
-7.987987987987984,0.027734039510107004
-7.867867867867868,0.02681777377884022
-7.747747747747747,0.02576212550676325
-7.62762762762763,0.024386794668301036
-7.507507507507508,0.02254446567601502
-7.387387387387392,0.020232546727483394
-7.2672672672672665,0.01777313012180256
-7.1471471471471455,0.016051150861852995
-7.027027027027033,0.016765594598789776
-6.906906906906907,0.022606579266729158
-6.786786786786791,0.037239038058697015
-6.666666666666674,0.06497571098401783
-6.546546546546543,0.11007813117572902
-6.426426426426432,0.17573429180830077
-6.306306306306306,0.26289726069007935
-6.186186186186189,0.36928035800279047
-6.066066066066073,0.4888409041256516
-5.945945945945942,0.6120154891166637
-5.82582582582583,0.7268075718001842
-5.705705705705705,0.8205968692309216
-5.585585585585588,0.8823250867595235
-5.465465465465467,0.904569252022393
-5.345345345345341,0.8849968644002709
-5.225225225225234,0.8268264956687208
-5.105105105105103,0.7381633836926025
-4.984984984984987,0.6303728368701458
-4.864864864864865,0.5159048198953703
-4.7447447447447395,0.4061110180934941
-4.624624624624632,0.309560957683795
-4.504504504504501,0.23118249818194186
-4.384384384384385,0.1722915538129629
-4.264264264264264,0.13132905647394227
-4.144144144144138,0.10497086699019566
-4.024024024024031,0.08925512605870642
-3.9039039039039003,0.08046257947672496
-3.7837837837837838,0.07563080078746466
-3.6636636636636624,0.07271874806840205
-3.543543543543541,0.070522027919365
-3.4234234234234293,0.06846270214354416
-3.3033033033032986,0.06635637365852325
-3.183183183183182,0.06421861240722512
-3.063063063063061,0.06213353162596923
-2.9429429429429397,0.06018064348727498
-2.8228228228228276,0.058403792903736575
-2.7027027027027066,0.056804206198383764
-2.5825825825825808,0.05534330693813043
-2.4624624624624643,0.05394613894043867
-2.342342342342343,0.05250152129553493
-2.2222222222222263,0.05086071725211661
-2.102102102102105,0.04884304400833692
-1.9819819819819886,0.046263993229250455
-1.8618618618618625,0.043006662563135345
-1.7417417417417413,0.039156470917094614
-1.6216216216216202,0.035207494473260006
-1.5015015015015036,0.03232289437784908
-1.381381381381387,0.03259269241599659
-1.261261261261266,0.03918865074564098
-1.14114114114114,0.05628759727291684
